freq,gain
100,4.98
200,4.76
300,4.44
400,4.12
500,3.82
600,3.48
700,3.16
800,2.91
900,2.68
1000,2.47
1100,2.3
1200,2.14
1300,1.99
1400,1.87
1500,1.75
1600,1.66
1700,1.56
1800,1.48
1900,1.36
2000,1.28
2100,1.22
2200,1.16
2300,1.1
2400,1.05
2500,1
2600,0.95
2700,0.912
2800,0.88
2900,0.84
3000,0.804
